# Rank of the process:       0
#                   time                  density              momentum_01              momentum_02              momentum_03                   energy
 0.0000000000000000E+000  0.1007644373619025E+001  0.0000000000000000E+000  0.0000000000000000E+000  0.0000000000000000E+000  0.2534431330692510E+001
 0.1922048805661797E-003  0.1007644371800997E+001  0.1366598812375849E-004  0.1366598812375826E-004  0.1366598812375855E-004  0.2534431324301767E+001
 0.3842892531771207E-003  0.1007644366351395E+001  0.2732329160251027E-004  0.2732329160250993E-004  0.2732329160251024E-004  0.2534431305145306E+001
 0.5762543353974924E-003  0.1007644357276769E+001  0.4097188102805721E-004  0.4097188102805669E-004  0.4097188102805681E-004  0.2534431273246141E+001
 0.7681013440450572E-003  0.1007644344583426E+001  0.5461172736997544E-004  0.5461172736997469E-004  0.5461172736997515E-004  0.2534431228626443E+001
 0.9598314886049555E-003  0.1007644328277432E+001  0.6824280150138230E-004  0.6824280150138158E-004  0.6824280150138204E-004  0.2534431171307540E+001
 0.1151445819232811E-002  0.1007644308364636E+001  0.8186506338751021E-004  0.8186506338750938E-004  0.8186506338751003E-004  0.2534431101309988E+001
 0.1342945408131961E-002  0.1007644284850658E+001  0.9547847497631030E-004  0.9547847497630928E-004  0.9547847497631033E-004  0.2534431018653540E+001
 0.1534331411462534E-002  0.1007644257740880E+001  0.1090830045935531E-003  0.1090830045935517E-003  0.1090830045935530E-003  0.2534430923357109E+001
 0.1725604984737550E-002  0.1007644227040451E+001  0.1226786209221539E-003  0.1226786209221526E-003  0.1226786209221541E-003  0.2534430815438799E+001
 0.1916767283111302E-002  0.1007644192754291E+001  0.1362652930170439E-003  0.1362652930170424E-003  0.1362652930170445E-003  0.2534430694915901E+001
 0.2107819461007301E-002  0.1007644154887092E+001  0.1498429902731069E-003  0.1498429902731053E-003  0.1498429902731073E-003  0.2534430561804899E+001
 0.2298762672092522E-002  0.1007644113443316E+001  0.1634116824177490E-003  0.1634116824177475E-003  0.1634116824177496E-003  0.2534430416121478E+001
 0.2489598069265941E-002  0.1007644068427197E+001  0.1769713395045023E-003  0.1769713395045005E-003  0.1769713395045029E-003  0.2534430257880520E+001
 0.2680326804649330E-002  0.1007644019842744E+001  0.1905219319068008E-003  0.1905219319067987E-003  0.1905219319068012E-003  0.2534430087096110E+001
 0.2870950029577858E-002  0.1007643967693740E+001  0.2040634303117605E-003  0.2040634303117580E-003  0.2040634303117612E-003  0.2534429903781542E+001
 0.3061468894591691E-002  0.1007643911983743E+001  0.2175958057140469E-003  0.2175958057140439E-003  0.2175958057140478E-003  0.2534429707949318E+001
 0.3251884549429556E-002  0.1007643852716086E+001  0.2311190294098956E-003  0.2311190294098924E-003  0.2311190294098964E-003  0.2534429499611152E+001
 0.3442198143021316E-002  0.1007643789893881E+001  0.2446330729910825E-003  0.2446330729910790E-003  0.2446330729910835E-003  0.2534429278777975E+001
 0.3632410823479240E-002  0.1007643723520017E+001  0.2581379083388149E-003  0.2581379083388113E-003  0.2581379083388160E-003  0.2534429045459934E+001
 0.3822523738092022E-002  0.1007643653597159E+001  0.2716335076178370E-003  0.2716335076178333E-003  0.2716335076178380E-003  0.2534428799666399E+001
