# Rank of the process:       0
#                   time                  density                 pressure              velocity_01              velocity_02                  polygon
 0.0000000000000000E+000  0.1400000000000987E+001  0.4000000000002819E+003  0.0000000000000000E+000  0.0000000000000000E+000  0.0000000000000000E+000
 0.1594387755102040E-005  0.1400082132431055E+001  0.4014235292765374E+003 -0.2488958449493231E-004 -0.4600908414001355E-005  0.0000000000000000E+000
 0.2634302014201041E-005  0.1400163630184823E+001  0.4010772132255748E+003 -0.1285471401480242E-002 -0.3752105497942409E-005  0.0000000000000000E+000
 0.3677965034043464E-005  0.1400245114542117E+001  0.3992839180801997E+003 -0.3150921519820124E-002 -0.2822453430103705E-005  0.0000000000000000E+000
 0.4723441189978704E-005  0.1400323609384239E+001  0.3971921676189759E+003 -0.5149657199600619E-002 -0.1533640783880572E-005  0.0000000000000000E+000
 0.5769611599131884E-005  0.1400397385129435E+001  0.3953174791587651E+003 -0.7052544626143784E-002 -0.1425537853253654E-006  0.0000000000000000E+000
 0.6815692667947932E-005  0.1400465459085276E+001  0.3938174272814086E+003 -0.8750926051787011E-002  0.1285630675459243E-005  0.0000000000000000E+000
 0.7861134820294366E-005  0.1400527347252022E+001  0.3927025560466718E+003 -0.1020210331383178E-001  0.2622525582653113E-005  0.0000000000000000E+000
 0.8904600767755284E-005  0.1400582840346961E+001  0.3919318198382475E+003 -0.1139781848174127E-001  0.3812026531653523E-005  0.0000000000000000E+000
 0.9946007382716684E-005  0.1400631967909710E+001  0.3914512671885921E+003 -0.1234642889091382E-001  0.4839510658399169E-005  0.0000000000000000E+000
 0.1098527537569092E-004  0.1400674883486704E+001  0.3912085895018967E+003 -0.1306409047748736E-001  0.5708943439601488E-005  0.0000000000000000E+000
 0.1202233397272045E-004  0.1400714025152925E+001  0.3911246513217161E+003 -0.1359885051726249E-001  0.7881968141276528E-005  0.0000000000000000E+000
 0.1305466183692476E-004  0.1400733312806009E+001  0.3911273556628620E+003 -0.1383576605416039E-001  0.6569540164503576E-005  0.0000000000000000E+000
 0.1408793426460247E-004  0.1400752742373319E+001  0.3913968548989026E+003 -0.1374533870970441E-001  0.6502955463392027E-005  0.0000000000000000E+000
 0.1511955863677253E-004  0.1400771729896078E+001  0.3918346668644252E+003 -0.1347769991116469E-001  0.6898928923658766E-005  0.0000000000000000E+000
 0.1614889739479402E-004  0.1400789475911023E+001  0.3923526634446047E+003 -0.1311058821974342E-001  0.7380534552420722E-005  0.0000000000000000E+000
 0.1717567700726882E-004  0.1400805391923338E+001  0.3929049093248954E+003 -0.1268193328451593E-001  0.7832428285308528E-005  0.0000000000000000E+000
 0.1819988606484616E-004  0.1400819093879619E+001  0.3934697255212208E+003 -0.1221077874220235E-001  0.8205508515822633E-005  0.0000000000000000E+000
 0.1922151750906857E-004  0.1400830342521384E+001  0.3940368691556874E+003 -0.1170730791917806E-001  0.8489546364583065E-005  0.0000000000000000E+000
 0.2024056769575622E-004  0.1400838996639766E+001  0.3946013133653326E+003 -0.1117737985501065E-001  0.8692292025848191E-005  0.0000000000000000E+000
 0.2125703570525620E-004  0.1400844981704884E+001  0.3951604351371988E+003 -0.1062468423848815E-001  0.8827088709245057E-005  0.0000000000000000E+000
 0.2227092282352352E-004  0.1400848269159957E+001  0.3957127475268043E+003 -0.1005180314962575E-001  0.8907364764075237E-005  0.0000000000000000E+000
 0.2328223214039903E-004  0.1400848862478265E+001  0.3962573204139996E+003 -0.9460744365678007E-002  0.8944740575003104E-005  0.0000000000000000E+000
 0.2429096823217168E-004  0.1400846787530526E+001  0.3967935119545684E+003 -0.8853210258991414E-002  0.8948689059811683E-005  0.0000000000000000E+000
 0.2529713690686789E-004  0.1400842085782320E+001  0.3973208425339877E+003 -0.8230731854416544E-002  0.8926754637110695E-005  0.0000000000000000E+000
 0.2630074499744759E-004  0.1400834809411385E+001  0.3978389348764522E+003 -0.7594733764571065E-002  0.8884909871271418E-005  0.0000000000000000E+000
 0.2730180019229875E-004  0.1400825017764896E+001  0.3983474849994183E+003 -0.6946564001776213E-002  0.8827894115712377E-005  0.0000000000000000E+000
 0.2830028625825028E-004  0.1400812773592136E+001  0.3988462469539159E+003 -0.6287547450324612E-002  0.8759495744399154E-005  0.0000000000000000E+000
 0.2929620143331998E-004  0.1400798142422524E+001  0.3993350250282575E+003 -0.5618918304931754E-002  0.8682747221175545E-005  0.0000000000000000E+000
 0.3028955484151249E-004  0.1400781191641689E+001  0.3998136687436257E+003 -0.4941825979404334E-002  0.8600098338990048E-005  0.0000000000000000E+000
 0.3128035606893958E-004  0.1400761989226738E+001  0.4002820686887595E+003 -0.4257360118735567E-002  0.8513533880353649E-005  0.0000000000000000E+000
 0.3226861509145806E-004  0.1400740602892611E+001  0.4007401527979185E+003 -0.3566553952171165E-002  0.8424660700646939E-005  0.0000000000000000E+000
 0.3325434221221984E-004  0.1400717091098757E+001  0.4011873710537596E+003 -0.2869885194643293E-002  0.9510752862751843E-005  0.0000000000000000E+000
 0.3423754033373554E-004  0.1400691609670049E+001  0.4016244905354169E+003 -0.2173285613247109E-002  0.9553333564550760E-005  0.0000000000000000E+000
 0.3521661614914117E-004  0.1400663981485133E+001  0.4020519156960212E+003 -0.1473168220343440E-002  0.9646329596111658E-005  0.0000000000000000E+000
 0.3619352754001187E-004  0.1400634417892222E+001  0.4024691816866975E+003 -0.7692295659649194E-003  0.9365070061441004E-005  0.0000000000000000E+000
 0.3716827833248023E-004  0.1400602990736237E+001  0.4028760943439480E+003 -0.6026043571429893E-004  0.8984940677564286E-005  0.0000000000000000E+000
 0.3814050728621537E-004  0.1400569721570573E+001  0.4032726393092581E+003  0.6533355651301944E-003  0.8575472251764890E-005  0.0000000000000000E+000
 0.3911030503459560E-004  0.1400534658416965E+001  0.4036589253735666E+003  0.1370390929306697E-002  0.8181815369386296E-005  0.0000000000000000E+000
 0.4007771470693616E-004  0.1400497866947070E+001  0.4040351197441568E+003  0.2089036164497828E-002  0.7823014392077607E-005  0.0000000000000000E+000
 0.4104276014537773E-004  0.1400459419277024E+001  0.4044014079774940E+003  0.2807413613843411E-002  0.7503701842349944E-005  0.0000000000000000E+000
 0.4200545647981055E-004  0.1400419386257663E+001  0.4047579764039570E+003  0.3524003565739712E-002  0.7221942912003776E-005  0.0000000000000000E+000
 0.4296581466076808E-004  0.1400377833686738E+001  0.4051050065564639E+003  0.4237686028086627E-002  0.6973360407702659E-005  0.0000000000000000E+000
 0.4392384358945534E-004  0.1400334821078373E+001  0.4054426746432938E+003  0.4947689516161812E-002  0.6753071480638921E-005  0.0000000000000000E+000
 0.4487955118362572E-004  0.1400290401788181E+001  0.4057711526700008E+003  0.5653509170706645E-002  0.6556501073705490E-005  0.0000000000000000E+000
 0.4583294493338774E-004  0.1400244623731112E+001  0.4060906097944641E+003  0.6354828901726617E-002  0.6379662848987641E-005  0.0000000000000000E+000
 0.4678403219731103E-004  0.1400197530274021E+001  0.4064012134192046E+003  0.7051458640070217E-002  0.6219204329039659E-005  0.0000000000000000E+000
 0.4773282036025996E-004  0.1400149161099328E+001  0.4067031299184339E+003  0.7743287801116974E-002  0.6072357133456308E-005  0.0000000000000000E+000
 0.4867931691525117E-004  0.1400099552955802E+001  0.4069965250394662E+003  0.8430252559230213E-002  0.5936856342989318E-005  0.0000000000000000E+000
 0.4962352950250327E-004  0.1400048740273861E+001  0.4072815640550033E+003  0.9112313782176164E-002  0.5810856567618731E-005  0.0000000000000000E+000
 0.5056546592420960E-004  0.1399996755651452E+001  0.4075584117430218E+003  0.9789442757061130E-002  0.5692855569050845E-005  0.0000000000000000E+000
 0.5150513414541354E-004  0.1399943630227889E+001  0.4078272322567951E+003  0.1046161240933195E-001  0.5581628785748081E-005  0.0000000000000000E+000
 0.5244254228725513E-004  0.1399889393965882E+001  0.4080881889315236E+003  0.1112879228709427E-001  0.5476174892261348E-005  0.0000000000000000E+000
 0.5337769861602762E-004  0.1399834075860952E+001  0.4083414440585832E+003  0.1179094605854698E-001  0.5375671337900483E-005  0.0000000000000000E+000
 0.5431061153028308E-004  0.1399777704094528E+001  0.4085871586522607E+003  0.1244803063832817E-001  0.5279438413236008E-005  0.0000000000000000E+000
 0.5524128954725494E-004  0.1399720306144465E+001  0.4088254922203540E+003  0.1309999632929139E-001  0.5186910429306968E-005  0.0000000000000000E+000
 0.5616974128930870E-004  0.1399661908863604E+001  0.4090566025510943E+003  0.1374678756173465E-001  0.5097612724719183E-005  0.0000000000000000E+000
 0.5709597547087194E-004  0.1399602528199594E+001  0.4092815493023326E+003  0.1438860963209259E-001  0.3560918581932242E-005  0.0000000000000000E+000
 0.5801997747207904E-004  0.1399542265023594E+001  0.4094983774919145E+003  0.1502334585665386E-001  0.3763220531450879E-005  0.0000000000000000E+000
 0.5894179472647312E-004  0.1399471760883736E+001  0.4097057214172680E+003  0.1572276433490500E-001  0.4547256334499648E-005  0.0000000000000000E+000
 0.5986215065424454E-004  0.1399390024893535E+001  0.4098390493932536E+003  0.1664031114151264E-001  0.5970183924849301E-005  0.0000000000000000E+000
 0.6078080184583487E-004  0.1399312269581516E+001  0.4100427952504917E+003  0.1777556296664685E-001  0.2390071640378337E-005  0.0000000000000000E+000
 0.6169752181912902E-004  0.1399240050261023E+001  0.4102996251829709E+003  0.1897738616875293E-001  0.5846364284774828E-006  0.0000000000000000E+000
 0.6261228137367121E-004  0.1399173145929873E+001  0.4105719843802549E+003  0.2015030306382373E-001 -0.2798631724966764E-006  0.0000000000000000E+000
 0.6352507003231175E-004  0.1399110889428915E+001  0.4108374400091848E+003  0.2124813972642995E-001 -0.5393607888591045E-006  0.0000000000000000E+000
 0.6443588538631276E-004  0.1399052551235701E+001  0.4110857008133673E+003  0.2225228406266874E-001 -0.4263172636554905E-006  0.0000000000000000E+000
 0.6534470744134693E-004  0.1398997454771646E+001  0.4113130687582694E+003  0.2315807969706013E-001 -0.1136401948082273E-006  0.0000000000000000E+000
 0.6625153159995344E-004  0.1398945006820615E+001  0.4115190620712466E+003  0.2396775134289641E-001  0.2871778194672211E-006  0.0000000000000000E+000
 0.6715637175349093E-004  0.1398894696676140E+001  0.4117045525347920E+003  0.2468683984331664E-001  0.8800383572154614E-006  0.0000000000000000E+000
 0.6805911840019710E-004  0.1398846091179151E+001  0.4118712157743086E+003  0.2532158697083143E-001  0.1106735758359070E-005  0.0000000000000000E+000
 0.6895984208089205E-004  0.1398798829900962E+001  0.4120208641174760E+003  0.2587879747625820E-001  0.1364788356067048E-005  0.0000000000000000E+000
 0.6985850330894150E-004  0.1398752603417168E+001  0.4121552780116156E+003  0.2636585500741223E-001  0.1635849303922930E-005  0.0000000000000000E+000
 0.7075502942666843E-004  0.1398707153017429E+001  0.4122760578081648E+003  0.2678931191237564E-001  0.1894873254532551E-005  0.0000000000000000E+000
 0.7164943858526044E-004  0.1398662268130087E+001  0.4123846516967242E+003  0.2715471806324887E-001  0.2133250416852234E-005  0.0000000000000000E+000
 0.7254174589369328E-004  0.1398617780453561E+001  0.4124823593482250E+003  0.2746674747961772E-001  0.2346160733712554E-005  0.0000000000000000E+000
 0.7343196459064998E-004  0.1398573554649148E+001  0.4125703363953523E+003  0.2772950778935647E-001  0.2531488321567058E-005  0.0000000000000000E+000
 0.7432010667124435E-004  0.1398529480145360E+001  0.4126496036803646E+003  0.2794674911727121E-001  0.2688944794562477E-005  0.0000000000000000E+000
 0.7520618325846591E-004  0.1398485465046697E+001  0.4127210594492900E+003  0.2812196572214324E-001  0.2819388865755961E-005  0.0000000000000000E+000
 0.7609020483930590E-004  0.1398441431842873E+001  0.4127854925233813E+003  0.2825843752848991E-001  0.2924346167768711E-005  0.0000000000000000E+000
 0.7697218142251767E-004  0.1398397314419106E+001  0.4128435952116237E+003  0.2835924426653217E-001  0.3005688475820372E-005  0.0000000000000000E+000
 0.7785212264806250E-004  0.1398353055956258E+001  0.4128959753245169E+003  0.2842726913429014E-001  0.3065427478434190E-005  0.0000000000000000E+000
 0.7873003786532027E-004  0.1398308607424020E+001  0.4129431670143948E+003  0.2846520007094024E-001  0.3105586524193116E-005  0.0000000000000000E+000
 0.7960593619023508E-004  0.1398263926463487E+001  0.4129856403747782E+003  0.2847553220985696E-001  0.3128123825262476E-005  0.0000000000000000E+000
 0.8047982654791217E-004  0.1398218976523967E+001  0.4130238098395337E+003  0.2846057273230038E-001  0.3134888970269291E-005  0.0000000000000000E+000
 0.8135171770476017E-004  0.1398173726167322E+001  0.4130580414779737E+003  0.2842244815646588E-001  0.3127600675146198E-005  0.0000000000000000E+000
 0.8222161829313656E-004  0.1398128148485997E+001  0.4130886593013898E+003  0.2836311357090443E-001  0.3107837972613222E-005  0.0000000000000000E+000
 0.8308953683037443E-004  0.1398082220601754E+001  0.4131159507031526E+003  0.2828436316411778E-001  0.3077039680231469E-005  0.0000000000000000E+000
 0.8395548173362668E-004  0.1398035923225364E+001  0.4131401711452332E+003  0.2818784143359842E-001  0.3036508858008659E-005  0.0000000000000000E+000
 0.8481946125509985E-004  0.1397989240263015E+001  0.4131615481967842E+003  0.2807505449844914E-001  0.2987420195098543E-005  0.0000000000000000E+000
 0.8568148215208758E-004  0.1397942158428724E+001  0.4131802850012142E+003  0.2794738007734885E-001  0.2930829678517408E-005  0.0000000000000000E+000
 0.8654155254561505E-004  0.1397894666968526E+001  0.4131965632892940E+003  0.2780608086270402E-001  0.2867682031462454E-005  0.0000000000000000E+000
 0.8739968049787153E-004  0.1397846757390879E+001  0.4132105459941689E+003  0.2765231381705888E-001  0.2798821490745753E-005  0.0000000000000000E+000
 0.8825587401608910E-004  0.1397798423210213E+001  0.4132223795041247E+003  0.2748713911533228E-001  0.2725000871445385E-005  0.0000000000000000E+000
 0.8911014105549756E-004  0.1397749659716837E+001  0.4132321956143818E+003  0.2731152867330303E-001  0.2646890453765539E-005  0.0000000000000000E+000
 0.8996248952168828E-004  0.1397700463771409E+001  0.4132401132253001E+003  0.2712637405577019E-001  0.2565086239987433E-005  0.0000000000000000E+000
 0.9081292727251089E-004  0.1397650833621630E+001  0.4132462398212649E+003  0.2693249371322062E-001  0.2480117557388536E-005  0.0000000000000000E+000
 0.9166146211955069E-004  0.1397600768738722E+001  0.4132506727631104E+003  0.2673063956245710E-001  0.2392454004529401E-005  0.0000000000000000E+000
 0.9250810182935939E-004  0.1397550269671691E+001  0.4132535004173400E+003  0.2652150295165470E-001  0.2302511785403418E-005  0.0000000000000000E+000
 0.9335285412445314E-004  0.1397499337917417E+001  0.4132548031482274E+003  0.2630572005761201E-001  0.2210659443032427E-005  0.0000000000000000E+000
 0.9419572668411786E-004  0.1397447975804989E+001  0.4132546541867239E+003  0.2608387676616347E-001  0.2117223043804389E-005  0.0000000000000000E+000
 0.9503672714508052E-004  0.1397396186392543E+001  0.4132531203955893E+003  0.2585651308291368E-001  0.2022490833153421E-005  0.0000000000000000E+000
 0.9587586310207021E-004  0.1397343973375520E+001  0.4132502629445183E+003  0.2562412712027671E-001  0.1926717431908848E-005  0.0000000000000000E+000
 0.9671314210830159E-004  0.1397291341004882E+001  0.4132461379049362E+003  0.2538717870305258E-001  0.1830127572800920E-005  0.0000000000000000E+000
 0.9754857167586642E-004  0.1397238294014282E+001  0.4132407967757659E+003  0.2514609263040515E-001  0.1732919466880162E-005  0.0000000000000000E+000
 0.9838215927612691E-004  0.1397184837555248E+001  0.4132342869501231E+003  0.2490126162948481E-001  0.1635267800118745E-005  0.0000000000000000E+000
 0.9921391233998808E-004  0.1397130977139423E+001  0.4132266521283853E+003  0.2465304903143231E-001  0.1537326417067635E-005  0.0000000000000000E+000
 0.1000438382582321E-003  0.1397076718587140E+001  0.4132179326855015E+003  0.2440179119832168E-001  0.1439230706312762E-005  0.0000000000000000E+000
 0.1008719443817334E-003  0.1397022067380997E+001  0.4132081656409563E+003  0.2414782129212567E-001  0.1341648324631500E-005  0.0000000000000000E+000
 0.1016982374939315E-003  0.1396967030140207E+001  0.4131973853648821E+003  0.2389140338768741E-001  0.1242231000411781E-005  0.0000000000000000E+000
 0.1025227256519412E-003  0.1396911616567920E+001  0.4131856261590689E+003  0.2363265316080231E-001  0.1144171420591131E-005  0.0000000000000000E+000
 0.1033454163227871E-003  0.1396855835445800E+001  0.4131729200490905E+003  0.2337175770733513E-001  0.1046699884299675E-005  0.0000000000000000E+000
 0.1041663165914305E-003  0.1396799691174386E+001  0.4131592938221460E+003  0.2310914029269969E-001  0.9497389589854673E-006  0.0000000000000000E+000
 0.1049854334023876E-003  0.1396743185264923E+001  0.4131447703183388E+003  0.2284529395887809E-001  0.8532217270424423E-006  0.0000000000000000E+000
 0.1058027736755979E-003  0.1396686319650293E+001  0.4131293708543432E+003  0.2258059695426053E-001  0.7571224814691128E-006  0.0000000000000000E+000
 0.1066183443475315E-003  0.1396629098802166E+001  0.4131131167579594E+003  0.2231524659270528E-001  0.6614495159542982E-006  0.0000000000000000E+000
 0.1074321523776055E-003  0.1396571530117666E+001  0.4130960297724486E+003  0.2204929186593817E-001  0.5662296205330466E-006  0.0000000000000000E+000
 0.1082442047405490E-003  0.1396513623236469E+001  0.4130781317707998E+003  0.2178270116533285E-001  0.4714965685173247E-006  0.0000000000000000E+000
 0.1090545084144292E-003  0.1396455389018929E+001  0.4130594442477597E+003  0.2151542323471046E-001  0.3772851431985865E-006  0.0000000000000000E+000
 0.1098630703686693E-003  0.1396396838619608E+001  0.4130399878544459E+003  0.2124742690341840E-001  0.2836286497181744E-006  0.0000000000000000E+000
 0.1106698975537389E-003  0.1396337982822346E+001  0.4130197820846541E+003  0.2097872028044864E-001  0.1905581248935055E-006  0.0000000000000000E+000
 0.1114749968929582E-003  0.1396278831648981E+001  0.4129988451191167E+003  0.2070935521128917E-001  0.9810223452416278E-007  0.0000000000000000E+000
 0.1122783752763133E-003  0.1396219394189171E+001  0.4129771937972979E+003  0.2043942301049775E-001  0.6287362097598242E-008  0.0000000000000000E+000
 0.1130800395559966E-003  0.1396159678583926E+001  0.4129548436755207E+003  0.2016904604182180E-001 -0.8486229010349955E-007  0.0000000000000000E+000
 0.1138799965433840E-003  0.1396099692103340E+001  0.4129318091370290E+003  0.1989836810947821E-001 -0.1753246335610458E-006  0.0000000000000000E+000
 0.1146782530071255E-003  0.1396039441273039E+001  0.4129081035248336E+003  0.1962754534819579E-001 -0.2650796476214189E-006  0.0000000000000000E+000
 0.1154748156720584E-003  0.1395978932018213E+001  0.4128837392812607E+003  0.1935673842880862E-001 -0.3541093381002759E-006  0.0000000000000000E+000
 0.1162696912187559E-003  0.1395918169805803E+001  0.4128587280815908E+003  0.1908610636047009E-001 -0.4423976842501115E-006  0.0000000000000000E+000
 0.1170628862835354E-003  0.1395857159773598E+001  0.4128330809537779E+003  0.1881580186667979E-001 -0.5299305580536066E-006  0.0000000000000000E+000
 0.1178544074588043E-003  0.1395795906841042E+001  0.4128068083856447E+003  0.1854596815832046E-001 -0.6166956208414541E-006  0.0000000000000000E+000
 0.1186442612935919E-003  0.1395734415800240E+001  0.4127799204142012E+003  0.1827673687229262E-001 -0.7026821998363002E-006  0.0000000000000000E+000
 0.1194324542942839E-003  0.1395672691387599E+001  0.4127524267003679E+003  0.1800822694859876E-001 -0.7878811452033988E-006  0.0000000000000000E+000
 0.1202189929253880E-003  0.1395610738337585E+001  0.4127243365913120E+003  0.1774054423237679E-001 -0.8722846773711433E-006  0.0000000000000000E+000
