# Rank of the process:       0
#                   time                  density
 0.0000000000000000E+000  0.1000000000000000E+001
 0.9795643920948033E-003  0.1006078687265654E+001
 0.1715841038739384E-002  0.1011108726822885E+001
 0.2452024840138451E-002  0.1013514967240814E+001
 0.3187987047699660E-002  0.1013899621924039E+001
 0.3923874581390707E-002  0.1012787326904314E+001
 0.4659718209678731E-002  0.1010576206172258E+001
 0.5395509986873321E-002  0.1007559648967998E+001
 0.6131230482928336E-002  0.1003953896255322E+001
 0.6866859156856126E-002  0.9999201158065767E+000
 0.7602378359137094E-002  0.9955802840460279E+000
 0.8337774636750424E-002  0.9910282555956689E+000
 0.9073038849490339E-002  0.9863374371967206E+000
 0.9808165785572285E-002  0.9815661406064942E+000
 0.1054314945572964E-001  0.9767613723963545E+000
 0.1127798628519676E-001  0.9719615298288431E+000
 0.1201267956433488E-001  0.9671983518020594E+000
 0.1299205635811350E-001  0.9609497526029723E+000
 0.1372642271566997E-001  0.9563684243243268E+000
 0.1446058490088102E-001  0.9518979325354101E+000
 0.1500000000000000E-001  0.9481565772844288E+000
