# Rank of the process:       0
#                   time                  density
 0.0000000000000000E+000  0.1250000000000000E+000
 0.1252191301392945E-002  0.1792066766267149E+000
 0.2525221272629923E-002  0.2181624624852465E+000
 0.3829684166908548E-002  0.2702053356933335E+000
 0.5008980030607794E-002  0.3204478318984489E+000
 0.6318014251070194E-002  0.3587725903105085E+000
 0.7523106413442281E-002  0.3758112996917851E+000
 0.8815093508409165E-002  0.3910694344719735E+000
 0.1002757817738754E-001  0.4055130316269835E+000
 0.1126346281916137E-001  0.4163670933892671E+000
 0.1250655886362941E-001  0.4224775268666843E+000
 0.1380125055663127E-001  0.4256043202205362E+000
 0.1503412323866369E-001  0.4269908519978500E+000
 0.1626024145283258E-001  0.4275421557477576E+000
 0.1750987917109545E-001  0.4277626840726581E+000
 0.1881797961639142E-001  0.4276767217971235E+000
 0.2003412592730980E-001  0.4271808680421799E+000
 0.2126427316735067E-001  0.4262473214771680E+000
 0.2250124892165609E-001  0.4250092995661157E+000
 0.2382721229927271E-001  0.4236375022135075E+000
 0.2500000000000000E-001  0.4226831698543620E+000
