# Rank of the process:       0
#                   time                  density
 0.0000000000000000E+000  0.1000000000000000E+001
 0.9798129092356471E-003  0.1004514013253973E+001
 0.1715715642704606E-002  0.1009422552745352E+001
 0.2451330633849795E-002  0.1012278568030064E+001
 0.3186675979908213E-002  0.1013383627597162E+001
 0.3921764045533340E-002  0.1013105197265006E+001
 0.4656670203196820E-002  0.1011755414169975E+001
 0.5391422711766576E-002  0.1009580366501703E+001
 0.6126030770359178E-002  0.1006770396272290E+001
 0.6860496125707404E-002  0.1003472784791915E+001
 0.7594818368242962E-002  0.9998024759869357E+000
 0.8328997399158886E-002  0.9958502678217674E+000
 0.9063034505448582E-002  0.9916888556655507E+000
 0.9796932727175113E-002  0.9873772424675736E+000
 0.1053069256887063E-001  0.9829639698456034E+000
 0.1126430232623081E-001  0.9784895127388944E+000
 0.1224213719599854E-001  0.9724868137337636E+000
 0.1297527966417840E-001  0.9679940264302863E+000
 0.1370818108949021E-001  0.9635361643092849E+000
 0.1444083739117750E-001  0.9591340933349632E+000
 0.1500000000000000E-001  0.9553320868057232E+000
