# Rank of the process:       0
#                   time                  density
 0.0000000000000000E+000  0.1250000000000000E+000
 0.6313980615120112E-003  0.1580964518110981E+000
 0.1252191301392945E-002  0.1792066766267149E+000
 0.1904192959263040E-002  0.1981638657537863E+000
 0.2525221272629924E-002  0.2181624624852466E+000
 0.3139024158382605E-002  0.2411322055981727E+000
 0.3829684166908549E-002  0.2702053356933337E+000
 0.4423161434592648E-002  0.2960692091546617E+000
 0.5008980030607795E-002  0.3204478318984491E+000
 0.5670252960637494E-002  0.3437381428949600E+000
 0.6318014251070194E-002  0.3587725903105086E+000
 0.6879882240153143E-002  0.3676833513034723E+000
 0.7523106413442281E-002  0.3758112996917853E+000
 0.8161518337743904E-002  0.3832445454026589E+000
 0.8815093508409163E-002  0.3910694344719737E+000
 0.9385853858471016E-002  0.3980658458071500E+000
 0.1002757817738753E-001  0.4055130316269840E+000
 0.1067758529757155E-001  0.4119001211508317E+000
 0.1126346281916137E-001  0.4163670933892675E+000
 0.1192771068073382E-001  0.4201258691711895E+000
 0.1250000000000000E-001  0.4224550091726224E+000
