# Rank of the process:       0
#                   time                  density
 0.0000000000000000E+000  0.9999999999999477E+000
 0.6484370307959714E-003  0.9794968432626943E+000
 0.1309646616440314E-002  0.9590497010466492E+000
 0.1888377708649375E-002  0.9420204417003838E+000
 0.2425745489955557E-002  0.9265249745172259E+000
 0.3045205709223849E-002  0.9083995443535408E+000
 0.3654215775272585E-002  0.8897457046968028E+000
 0.4246438104788162E-002  0.8704684099152428E+000
 0.4849963086833514E-002  0.8496312135147621E+000
 0.5436537113330271E-002  0.8286039523399672E+000
 0.6026259915951653E-002  0.8081148282059069E+000
 0.6636472485917618E-002  0.7883849027704390E+000
 0.7222603895218989E-002  0.7712531846951155E+000
 0.7804490995744220E-002  0.7579913104220682E+000
 0.8411086139534899E-002  0.7423142373355904E+000
 0.9043663634012426E-002  0.7267969574090840E+000
 0.9650634337464079E-002  0.7134857246825911E+000
 0.1023674795261763E-001  0.7029735919445419E+000
 0.1083441848503052E-001  0.6924310328068521E+000
 0.1140568434721735E-001  0.6819641938358320E+000
 0.1200000000000000E-001  0.6712124316638638E+000
