# Rank of the process:       0
#                   time                  density
 0.0000000000000000E+000  0.1999999999999895E+001
 0.6828789288646261E-003  0.1959795856941722E+001
 0.1224778513483397E-002  0.1929714913366942E+001
 0.1814849988201678E-002  0.1896397176289504E+001
 0.2478617345732429E-002  0.1856711443665136E+001
 0.3047879330874140E-002  0.1820447920392198E+001
 0.3623654726858360E-002  0.1781898542563506E+001
 0.4204195321241622E-002  0.1741653480199772E+001
 0.4876811223593448E-002  0.1694193243024673E+001
 0.5441479252695983E-002  0.1654445769292407E+001
 0.6079704652288145E-002  0.1610482968968722E+001
 0.6615140725433567E-002  0.1574850698547681E+001
 0.7241453605587111E-002  0.1534954697569537E+001
 0.7850793105365761E-002  0.1498173782149776E+001
 0.8441098421365482E-002  0.1464540021907805E+001
 0.9032361330094562E-002  0.1432797960873081E+001
 0.9631582869174400E-002  0.1402543928044592E+001
 0.1023899422453282E-001  0.1373745238070601E+001
 0.1085404734042082E-001  0.1346388371763615E+001
 0.1147119919711081E-001  0.1320646013888085E+001
 0.1200000000000000E-001  0.1299862938801949E+001
