# Rank of the process:       0
#                   time                  density
 0.0000000000000000E+000  0.9999999999999477E+000
 0.6484370307959713E-003  0.9794968432626938E+000
 0.1309646616440313E-002  0.9590497010466487E+000
 0.1888377708649374E-002  0.9420204417003833E+000
 0.2425745489955555E-002  0.9265249745172248E+000
 0.3045205709223847E-002  0.9083995443535394E+000
 0.3654215775272581E-002  0.8897457046968010E+000
 0.4246438104788156E-002  0.8704684099152412E+000
 0.4849963086833506E-002  0.8496312135147612E+000
 0.5436537113330257E-002  0.8286039523399665E+000
 0.6026259915951630E-002  0.8081148282059070E+000
 0.6636472485917582E-002  0.7883849027704392E+000
 0.7222603895218923E-002  0.7712531846951166E+000
 0.7801339176772281E-002  0.7580717492833661E+000
 0.8414187349644393E-002  0.7423171610537375E+000
 0.9036796046382191E-002  0.7270539444668885E+000
 0.9654562291479350E-002  0.7135839744941177E+000
 0.1024762133060354E-001  0.7027899906738256E+000
 0.1084472778220555E-001  0.6919406147417055E+000
 0.1141053979399765E-001  0.6812650937574565E+000
 0.1200000000000000E-001  0.6703993184003788E+000
