# Rank of the process:       0
#                   time                  density
 0.0000000000000000E+000  0.1400029945827758E+001
 0.1523195165067198E-002  0.1400031256198106E+001
 0.3046389482924747E-002  0.1400032714739177E+001
 0.4569583434524061E-002  0.1400034291490859E+001
 0.6092777496522544E-002  0.1400035985101988E+001
 0.7615972157258264E-002  0.1400037794816323E+001
 0.9139167906475456E-002  0.1400039720479154E+001
 0.1066236522795785E-001  0.1400041762312602E+001
 0.1218556459438164E-001  0.1400043920752915E+001
 0.1370876646399180E-001  0.1400046196335353E+001
 0.1523197127875780E-001  0.1400048589616782E+001
 0.1675517478524152E-001  0.1400051101120015E+001
 0.1827837686104066E-001  0.1400053731322950E+001
 0.1980157793816504E-001  0.1400056480646502E+001
 0.2132477844866526E-001  0.1400059349459789E+001
 0.2284797882363434E-001  0.1400062338095357E+001
 0.2437117949233381E-001  0.1400065446870457E+001
 0.2589438086327282E-001  0.1400068676111641E+001
 0.2741758236934977E-001  0.1400072026178448E+001
 0.2894078444181063E-001  0.1400075497492842E+001
 0.3046398750933287E-001  0.1400079090560489E+001
 0.3198719199737689E-001  0.1400082805991036E+001
 0.3351039832766683E-001  0.1400086644514629E+001
 0.3503360691779588E-001  0.1400090606994228E+001
 0.3655681818094885E-001  0.1400094694433493E+001
 0.3808003252573171E-001  0.1400098907980228E+001
 0.3960325035609614E-001  0.1400103248925556E+001
 0.4112647207134585E-001  0.1400107718699151E+001
 0.4264969806621049E-001  0.1400112318860944E+001
 0.4417292873097276E-001  0.1400117051089822E+001
 0.4569616445163432E-001  0.1400121917169948E+001
 0.4721940206176441E-001  0.1400126918963414E+001
 0.4874263629612002E-001  0.1400132058396937E+001
 0.5026586755282463E-001  0.1400137337470843E+001
 0.5178909623216379E-001  0.1400142758224007E+001
 0.5331232273628311E-001  0.1400148322717177E+001
 0.5483554746889170E-001  0.1400154033017331E+001
 0.5635877083497224E-001  0.1400159891183495E+001
 0.5788199324049839E-001  0.1400165899254338E+001
 0.5940521509215994E-001  0.1400172059237805E+001
 0.6092843679709584E-001  0.1400178373102996E+001
 0.6245165876263487E-001  0.1400184842774343E+001
 0.6397488139604379E-001  0.1400191470128143E+001
 0.6549810510428200E-001  0.1400198256991384E+001
 0.6702133029376224E-001  0.1400205205142728E+001
 0.6854455737011622E-001  0.1400212316315514E+001
 0.7006778673796416E-001  0.1400219592202498E+001
 0.7159101880068697E-001  0.1400227034462106E+001
 0.7311425396020017E-001  0.1400234644725848E+001
 0.7463749261672797E-001  0.1400242424606617E+001
 0.7616073487407897E-001  0.1400250375705898E+001
 0.7768397973702187E-001  0.1400258499618241E+001
 0.7920722761585229E-001  0.1400266797953150E+001
 0.8073047891958308E-001  0.1400275272336208E+001
 0.8225373405577029E-001  0.1400283924416450E+001
 0.8377699343032487E-001  0.1400292755872597E+001
 0.8530025744730846E-001  0.1400301768417886E+001
 0.8682352650871165E-001  0.1400310963803282E+001
 0.8834680101421373E-001  0.1400320343818888E+001
 0.8987008136092306E-001  0.1400329910293378E+001
 0.9139336794309802E-001  0.1400339665091431E+001
 0.9291666115184850E-001  0.1400349610109010E+001
 0.9443995815284971E-001  0.1400359747244968E+001
 0.9596325067773008E-001  0.1400370078375003E+001
 0.9748653909867190E-001  0.1400380605435495E+001
 0.9900982379063815E-001  0.1400391330355002E+001
 0.1005331051312176E+000  0.1400402255039935E+001
 0.1020563835004705E+000  0.1400413381358760E+001
 0.1035796592807737E+000  0.1400424711124929E+001
 0.1051029328566649E+000  0.1400436246078811E+001
 0.1066262046146842E+000  0.1400447987868908E+001
 0.1081494749432125E+000  0.1400459938032587E+001
 0.1096727442323067E+000  0.1400472097976690E+001
 0.1111960128735283E+000  0.1400484468958249E+001
 0.1127192812597673E+000  0.1400497052065668E+001
 0.1142425497850585E+000  0.1400509848200585E+001
 0.1157658188443907E+000  0.1400522858060760E+001
 0.1172890888335071E+000  0.1400536082124194E+001
 0.1188123601486972E+000  0.1400549520634731E+001
 0.1203356331865791E+000  0.1400563173589363E+001
 0.1218589083438720E+000  0.1400577040727413E+001
 0.1233821860171594E+000  0.1400591121521721E+001
 0.1249054666026412E+000  0.1400605415172015E+001
 0.1264287504958773E+000  0.1400619920600459E+001
 0.1279520380915206E+000  0.1400634636449530E+001
 0.1294753297830408E+000  0.1400649561082118E+001
 0.1309986259624407E+000  0.1400664692583924E+001
 0.1325219270199635E+000  0.1400680028768046E+001
 0.1340452333437930E+000  0.1400695567181624E+001
 0.1355685453197493E+000  0.1400711305114519E+001
 0.1370918633309779E+000  0.1400727239609729E+001
 0.1386151877576364E+000  0.1400743367475491E+001
 0.1401385189765784E+000  0.1400759685298754E+001
 0.1416618573610374E+000  0.1400776189459849E+001
 0.1431852032803102E+000  0.1400792876148109E+001
 0.1447085570994444E+000  0.1400809741378140E+001
 0.1462319191789282E+000  0.1400826781006519E+001
 0.1477552898743873E+000  0.1400843990748616E+001
 0.1492786695362874E+000  0.1400861366195299E+001
 0.1508020578972037E+000  0.1400878902822124E+001
 0.1523254538173557E+000  0.1400896596001707E+001
 0.1538488469069874E+000  0.1400914440919474E+001
 0.1553722375841188E+000  0.1400932432820754E+001
 0.1568956262707406E+000  0.1400950566899220E+001
 0.1584190133926404E+000  0.1400968838307590E+001
 0.1599423993792181E+000  0.1400987242166616E+001
 0.1614657846632903E+000  0.1401005773572256E+001
 0.1629891696808836E+000  0.1401024427600915E+001
 0.1645125548710153E+000  0.1401043199312657E+001
 0.1660359406754643E+000  0.1401062083752402E+001
 0.1675593275385290E+000  0.1401081075949034E+001
 0.1690827159067755E+000  0.1401100170912533E+001
 0.1706061062287747E+000  0.1401119363629101E+001
 0.1721294989548297E+000  0.1401138649054440E+001
 0.1736528945366942E+000  0.1401158022105284E+001
 0.1751762912328446E+000  0.1401177477621232E+001
 0.1766996888001159E+000  0.1401197010400146E+001
 0.1782230877146699E+000  0.1401216615175827E+001
 0.1797464884542626E+000  0.1401236286595188E+001
 0.1812698914978526E+000  0.1401256019203792E+001
 0.1827932973252046E+000  0.1401275807430868E+001
 0.1843167064164908E+000  0.1401295645574098E+001
 0.1858401192518924E+000  0.1401315527784411E+001
 0.1873635363112021E+000  0.1401335448051093E+001
 0.1888869580734308E+000  0.1401355400187460E+001
 0.1904103850164208E+000  0.1401375377817355E+001
 0.1919338176164659E+000  0.1401395374362753E+001
 0.1934572563479424E+000  0.1401415383032690E+001
 0.1949807016829513E+000  0.1401435396813753E+001
 0.1965041540909736E+000  0.1401455408462358E+001
 0.1980276140385417E+000  0.1401475410498959E+001
 0.1995510796792754E+000  0.1401495395174127E+001
 0.2010745482370994E+000  0.1401515354485463E+001
 0.2025980201188605E+000  0.1401535280232553E+001
 0.2041214957306090E+000  0.1401555163978534E+001
 0.2056449754774631E+000  0.1401574997055989E+001
 0.2071684597634891E+000  0.1401594770575289E+001
 0.2086919489915977E+000  0.1401614475435415E+001
 0.2102154435634547E+000  0.1401634102337170E+001
 0.2117389438794069E+000  0.1401653641798738E+001
 0.2132624503384200E+000  0.1401673084173400E+001
 0.2147859633380298E+000  0.1401692419669346E+001
 0.2163094832743038E+000  0.1401711638371332E+001
 0.2178330105418121E+000  0.1401730730264030E+001
 0.2193565455336066E+000  0.1401749685256843E+001
 0.2208800886412062E+000  0.1401768493209912E+001
 0.2224036402545869E+000  0.1401787143961100E+001
 0.2239272007621744E+000  0.1401805627353656E+001
 0.2254507705508385E+000  0.1401823933264267E+001
 0.2269743500058860E+000  0.1401842051631254E+001
 0.2284979395110519E+000  0.1401859972482584E+001
 0.2300215394484860E+000  0.1401877685963413E+001
 0.2315451501987345E+000  0.1401895182362890E+001
 0.2330687721407134E+000  0.1401912452139958E+001
 0.2345924056516741E+000  0.1401929485947855E+001
 0.2361160511071579E+000  0.1401946274657115E+001
 0.2376397088809403E+000  0.1401962809376784E+001
 0.2391633793449625E+000  0.1401979081473706E+001
 0.2406870628692498E+000  0.1401995082589654E+001
 0.2422107598218165E+000  0.1402010804656167E+001
 0.2437344705685563E+000  0.1402026239906961E+001
 0.2452581954731180E+000  0.1402041380887825E+001
 0.2467819348967671E+000  0.1402056220463929E+001
 0.2483056891982321E+000  0.1402070751824503E+001
 0.2491528445991161E+000  0.1402078694888350E+001
 0.2500000000000000E+000  0.1402086539481624E+001
