# Rank of the process:       0
#                   time                  density
 0.0000000000000000E+000  0.1000000000000000E+001
 0.9794617459886437E-003  0.1006794954006798E+001
 0.1715912544932368E-002  0.1011754500894982E+001
 0.2452261174915311E-002  0.1013837583502119E+001
 0.3188481252188918E-002  0.1013794629684569E+001
 0.3924695286784141E-002  0.1012224712772049E+001
 0.4660912836956916E-002  0.1009564215067971E+001
 0.5397109832124466E-002  0.1006125943351613E+001
 0.6133254927388988E-002  0.1002135617301164E+001
 0.6869318920394296E-002  0.9977585685329105E+000
 0.7605277902782271E-002  0.9931180603021663E+000
 0.8341113881252487E-002  0.9883076637281430E+000
 0.9076814377063029E-002  0.9833996460600263E+000
 0.9812371666428971E-002  0.9784507225054409E+000
 0.1054777697177251E-001  0.9735060765111151E+000
 0.1128302547779083E-001  0.9686021816329770E+000
 0.1201811919445578E-001  0.9637688341912219E+000
 0.1275306212566550E-001  0.9590306633544232E+000
 0.1373276125124032E-001  0.9528962447163691E+000
 0.1446737578878182E-001  0.9484547230403929E+000
 0.1500000000000000E-001  0.9447826231020682E+000
